Freq (MHz),P1_TX1_P2_RX1 SDD21,P1_TX2_P2_RX2 SDD21,P1_TX3_P2_RX3 SDD21,P1_TX4_P2_RX4 SDD21,P2_TX1_P1_RX1 SDD21,P2_TX2_P1_RX2 SDD21,P2_TX3_P1_RX3 SDD21,P2_TX4_P1_RX4 SDD21
50.0,-0.287531,-0.294364,-0.305515,-0.314015,-0.285446,-0.295741,-0.304093,-0.314801
100.0,-0.405112,-0.414777,-0.42952,-0.442517,-0.405633,-0.417893,-0.430427,-0.444959
150.0,-0.510403,-0.521514,-0.539509,-0.553519,-0.510844,-0.524156,-0.540102,-0.556897
200.0,-0.602886,-0.617142,-0.635048,-0.652141,-0.606124,-0.618656,-0.638399,-0.653996
250.0,-0.693385,-0.709524,-0.732167,-0.74887,-0.696813,-0.712168,-0.734154,-0.753083
300.0,-0.771586,-0.791433,-0.81516,-0.836018,-0.779118,-0.794549,-0.819136,-0.836285
350.0,-0.858653,-0.878606,-0.904581,-0.922756,-0.864036,-0.884216,-0.904966,-0.929708
400.0,-0.944907,-0.966865,-0.996473,-1.02386,-0.95311,-0.978641,-0.999361,-1.029516
450.0,-1.019624,-1.041391,-1.075168,-1.100086,-1.030229,-1.058718,-1.076843,-1.10394
500.0,-1.088493,-1.113492,-1.143696,-1.16825,-1.098439,-1.124919,-1.152016,-1.17541
550.0,-1.161874,-1.192936,-1.227151,-1.255525,-1.175214,-1.210927,-1.23691,-1.270087
600.0,-1.238673,-1.270974,-1.305602,-1.334248,-1.247422,-1.289032,-1.315019,-1.342015
650.0,-1.291718,-1.322346,-1.354974,-1.382467,-1.305668,-1.33645,-1.359932,-1.387769
700.0,-1.34563,-1.377099,-1.41364,-1.451188,-1.36468,-1.393908,-1.423761,-1.461357
750.0,-1.41305,-1.461166,-1.490755,-1.532048,-1.433979,-1.483358,-1.503982,-1.543328
800.0,-1.47351,-1.524469,-1.553743,-1.58321,-1.500681,-1.544653,-1.561082,-1.593379
850.0,-1.517192,-1.54996,-1.58815,-1.622947,-1.537121,-1.570451,-1.595728,-1.624112
900.0,-1.564221,-1.603982,-1.642082,-1.687506,-1.582038,-1.619283,-1.647098,-1.690651
950.0,-1.625117,-1.681679,-1.716676,-1.759466,-1.652471,-1.703011,-1.724053,-1.7614
1000.0,-1.684114,-1.735314,-1.762964,-1.798893,-1.711665,-1.76315,-1.771039,-1.80356
1050.0,-1.721216,-1.754515,-1.794399,-1.83667,-1.741897,-1.773982,-1.797465,-1.83531
1100.0,-1.765612,-1.810825,-1.852448,-1.89329,-1.789529,-1.820062,-1.850367,-1.896379
1150.0,-1.831138,-1.890995,-1.91849,-1.957813,-1.859388,-1.902735,-1.921562,-1.961198
1200.0,-1.880527,-1.923786,-1.947974,-1.992857,-1.906166,-1.946494,-1.957569,-1.993941
1250.0,-1.910196,-1.940086,-1.980195,-2.034684,-1.932475,-1.959948,-1.985966,-2.03137
1300.0,-1.952734,-1.995551,-2.03414,-2.089126,-1.979089,-2.010445,-2.039832,-2.085835
1350.0,-2.011062,-2.061546,-2.082492,-2.127962,-2.043603,-2.088561,-2.0895,-2.131733
1400.0,-2.054897,-2.089423,-2.115903,-2.165994,-2.081929,-2.121396,-2.124646,-2.162231
1450.0,-2.084486,-2.110729,-2.1555,-2.220601,-2.104768,-2.137693,-2.159139,-2.208986
1500.0,-2.121893,-2.162469,-2.197824,-2.263102,-2.150335,-2.187377,-2.206797,-2.249441
1550.0,-2.170048,-2.220344,-2.243071,-2.295382,-2.213081,-2.255637,-2.252442,-2.284471
1600.0,-2.208774,-2.250556,-2.280958,-2.345931,-2.247066,-2.280551,-2.286501,-2.33048
1650.0,-2.248183,-2.277278,-2.321404,-2.399145,-2.2747,-2.301931,-2.323241,-2.376426
1700.0,-2.2837,-2.32469,-2.359904,-2.42048,-2.325688,-2.357361,-2.369458,-2.411767
1750.0,-2.326699,-2.373656,-2.398812,-2.460621,-2.374875,-2.410453,-2.410073,-2.452782
1800.0,-2.371645,-2.404094,-2.442479,-2.523986,-2.403555,-2.433956,-2.44681,-2.504257
1850.0,-2.413008,-2.438837,-2.492152,-2.558626,-2.439105,-2.472029,-2.488673,-2.544233
1900.0,-2.449814,-2.491615,-2.529443,-2.57428,-2.497221,-2.528529,-2.533017,-2.572369
1950.0,-2.486011,-2.525109,-2.555784,-2.620949,-2.540627,-2.565287,-2.564312,-2.621585
2000.0,-2.525055,-2.548667,-2.601655,-2.676465,-2.553773,-2.589726,-2.607333,-2.672965
2050.0,-2.575077,-2.599129,-2.646677,-2.698761,-2.608932,-2.646185,-2.654768,-2.702271
2100.0,-2.618211,-2.63664,-2.67856,-2.719291,-2.662935,-2.691201,-2.694324,-2.73804
2150.0,-2.640041,-2.661078,-2.717111,-2.771431,-2.678827,-2.715481,-2.726766,-2.785313
2200.0,-2.685284,-2.712123,-2.766784,-2.813448,-2.712184,-2.759779,-2.764536,-2.823981
2250.0,-2.751532,-2.762037,-2.803192,-2.830255,-2.779476,-2.813772,-2.814164,-2.857001
2300.0,-2.776121,-2.779431,-2.839939,-2.866581,-2.821487,-2.846168,-2.866488,-2.904766
2350.0,-2.787171,-2.813704,-2.880154,-2.90918,-2.831257,-2.873706,-2.8995,-2.949847
2400.0,-2.844788,-2.864998,-2.922213,-2.945368,-2.869756,-2.92258,-2.926229,-2.98377
2450.0,-2.905443,-2.896662,-2.957936,-2.968154,-2.927462,-2.964031,-2.971183,-3.013556
2500.0,-2.919733,-2.922816,-3.001781,-3.009466,-2.95908,-2.995042,-3.020159,-3.055977
2550.0,-2.935605,-2.957221,-3.039783,-3.054353,-2.979154,-3.032058,-3.046823,-3.09855
2600.0,-2.993734,-2.998978,-3.069417,-3.090028,-3.025206,-3.067366,-3.078058,-3.130699
2650.0,-3.047463,-3.038164,-3.102454,-3.120501,-3.079871,-3.104019,-3.126268,-3.162511
2700.0,-3.067761,-3.070226,-3.154661,-3.171316,-3.115792,-3.142589,-3.174072,-3.212295
2750.0,-3.089204,-3.106011,-3.189944,-3.21355,-3.125957,-3.172194,-3.197058,-3.245253
2800.0,-3.140949,-3.152,-3.215915,-3.2417,-3.168487,-3.203215,-3.224734,-3.268211
2850.0,-3.187821,-3.189736,-3.251024,-3.280147,-3.220355,-3.237826,-3.275135,-3.313588
2900.0,-3.206739,-3.221866,-3.305409,-3.339164,-3.24918,-3.277744,-3.332167,-3.359479
2950.0,-3.24666,-3.269998,-3.339594,-3.367298,-3.276297,-3.302959,-3.351101,-3.37979
3000.0,-3.310833,-3.310323,-3.356884,-3.39312,-3.326111,-3.333154,-3.372857,-3.4206
3050.0,-3.3387,-3.3288,-3.398097,-3.434856,-3.359557,-3.368712,-3.43313,-3.465371
3100.0,-3.351716,-3.367245,-3.459155,-3.470254,-3.380949,-3.414167,-3.476417,-3.489514
3150.0,-3.394471,-3.412682,-3.485726,-3.503409,-3.417111,-3.436356,-3.488347,-3.521209
3200.0,-3.440873,-3.440287,-3.501176,-3.543313,-3.451803,-3.458878,-3.526553,-3.574228
3250.0,-3.452657,-3.452917,-3.533571,-3.565414,-3.474548,-3.489789,-3.57627,-3.5962
3300.0,-3.472897,-3.491773,-3.578055,-3.591782,-3.508981,-3.524126,-3.595663,-3.607361
3350.0,-3.51971,-3.534329,-3.612588,-3.641395,-3.535644,-3.54867,-3.618657,-3.650848
3400.0,-3.557391,-3.560432,-3.633413,-3.674614,-3.569043,-3.579744,-3.670935,-3.70243
3450.0,-3.581639,-3.588566,-3.65994,-3.697687,-3.607768,-3.62062,-3.704592,-3.722799
3500.0,-3.6095,-3.628364,-3.703073,-3.739855,-3.642947,-3.658057,-3.727206,-3.742065
3550.0,-3.654593,-3.672762,-3.740432,-3.801522,-3.675974,-3.684399,-3.766825,-3.797697
3600.0,-3.704261,-3.71129,-3.769065,-3.837299,-3.713424,-3.712196,-3.82701,-3.866429
3650.0,-3.729518,-3.739217,-3.806973,-3.849426,-3.753967,-3.749894,-3.86117,-3.880439
3700.0,-3.749356,-3.765338,-3.838737,-3.873912,-3.788046,-3.786787,-3.860285,-3.880455
3750.0,-3.799405,-3.809657,-3.879878,-3.944614,-3.823461,-3.818182,-3.909037,-3.959551
3800.0,-3.848367,-3.850851,-3.937094,-3.989295,-3.859309,-3.86469,-3.999592,-4.022977
3850.0,-3.870961,-3.890294,-3.961185,-3.977759,-3.904049,-3.912518,-4.017743,-4.009799
3900.0,-3.902263,-3.919015,-3.969314,-4.016484,-3.959146,-3.940185,-3.999343,-4.029868
3950.0,-3.949638,-3.94889,-4.04888,-4.087848,-3.984357,-3.974659,-4.091243,-4.111211
4000.0,-4.003166,-4.019006,-4.122929,-4.110846,-4.019046,-4.07553,-4.197928,-4.145306
4050.0,-4.043629,-4.06822,-4.100752,-4.112802,-4.102435,-4.119201,-4.16565,-4.138438
4100.0,-4.073683,-4.060191,-4.130472,-4.154824,-4.144592,-4.091777,-4.152205,-4.165084
4150.0,-4.085588,-4.098528,-4.234525,-4.19801,-4.129952,-4.142465,-4.265255,-4.221027
4200.0,-4.13949,-4.183629,-4.263299,-4.217029,-4.188283,-4.23691,-4.321323,-4.25215
4250.0,-4.194305,-4.198044,-4.22816,-4.241853,-4.283138,-4.237452,-4.278655,-4.26522
4300.0,-4.189176,-4.183221,-4.250881,-4.279304,-4.283565,-4.223519,-4.289189,-4.287635
4350.0,-4.1956,-4.23773,-4.319287,-4.313727,-4.262182,-4.303868,-4.376379,-4.336559
4400.0,-4.263573,-4.312673,-4.350919,-4.350082,-4.327906,-4.392227,-4.418389,-4.37685
4450.0,-4.322651,-4.326856,-4.353083,-4.380569,-4.419492,-4.385467,-4.39605,-4.405585
4500.0,-4.308081,-4.315907,-4.372861,-4.406071,-4.428769,-4.362828,-4.407118,-4.430258
4550.0,-4.30521,-4.353317,-4.431331,-4.440444,-4.407128,-4.431462,-4.495963,-4.469497
4600.0,-4.382045,-4.43314,-4.485127,-4.477456,-4.472097,-4.540279,-4.546448,-4.512172
4650.0,-4.462966,-4.475049,-4.484107,-4.504505,-4.603056,-4.55697,-4.52441,-4.544864
4700.0,-4.456696,-4.456567,-4.497044,-4.533796,-4.626629,-4.512219,-4.539772,-4.57301
4750.0,-4.435376,-4.486862,-4.564781,-4.571087,-4.567176,-4.577629,-4.62133,-4.608013
4800.0,-4.520163,-4.5999,-4.600422,-4.601723,-4.670656,-4.711607,-4.650266,-4.642984
4850.0,-4.631319,-4.6412,-4.594137,-4.636073,-4.877859,-4.705525,-4.64174,-4.687376
4900.0,-4.600453,-4.591249,-4.622554,-4.686887,-4.854803,-4.647738,-4.669919,-4.741272
4950.0,-4.546113,-4.621109,-4.660216,-4.737371,-4.713107,-4.734222,-4.713602,-4.791552
5000.0,-4.648037,-4.720951,-4.683442,-4.74952,-4.832474,-4.830773,-4.74006,-4.802199
5050.0,-4.737145,-4.728036,-4.711303,-4.800299,-4.993558,-4.793959,-4.7694,-4.847065
5100.0,-4.682974,-4.698289,-4.742983,-4.918362,-4.911587,-4.767429,-4.8091,-4.960007
5150.0,-4.65859,-4.728743,-4.779844,-4.926849,-4.82101,-4.832713,-4.847349,-4.986473
5200.0,-4.75065,-4.775527,-4.804758,-4.885086,-4.911475,-4.884836,-4.87346,-4.940285
5250.0,-4.826805,-4.806032,-4.843763,-4.979716,-5.009492,-4.885605,-4.917378,-5.014514
5300.0,-4.803818,-4.824041,-4.898255,-5.084596,-5.004043,-4.895148,-4.977343,-5.141025
5350.0,-4.792051,-4.838754,-4.907991,-5.034908,-4.957663,-4.922842,-4.98943,-5.122283
5400.0,-4.850074,-4.870008,-4.922836,-4.994799,-4.98794,-4.96987,-4.996388,-5.060411
5450.0,-4.929312,-4.923355,-4.971687,-5.074951,-5.11209,-5.006774,-5.051098,-5.122912
5500.0,-4.963701,-4.960295,-5.015534,-5.154644,-5.199416,-5.022534,-5.106316,-5.254007
5550.0,-4.955265,-4.968924,-5.031078,-5.147805,-5.154602,-5.040391,-5.118024,-5.284602
5600.0,-4.978384,-4.989144,-5.047973,-5.114415,-5.124755,-5.083031,-5.129134,-5.212096
5650.0,-5.076837,-5.031749,-5.072836,-5.168985,-5.263113,-5.118223,-5.162673,-5.24441
5700.0,-5.129349,-5.072086,-5.137508,-5.305009,-5.359462,-5.142373,-5.238134,-5.423805
5750.0,-5.108253,-5.091373,-5.206456,-5.340982,-5.279108,-5.163228,-5.318349,-5.470687
5800.0,-5.133617,-5.109483,-5.225604,-5.263399,-5.252693,-5.198819,-5.325341,-5.359779
5850.0,-5.187009,-5.144323,-5.227287,-5.319437,-5.354993,-5.241873,-5.313243,-5.3925
5900.0,-5.211454,-5.194942,-5.331071,-5.477712,-5.412564,-5.277955,-5.446515,-5.578448
5950.0,-5.237573,-5.24987,-5.447295,-5.480019,-5.398379,-5.326659,-5.570433,-5.573592
6000.0,-5.251116,-5.277786,-5.403173,-5.395609,-5.384483,-5.387656,-5.497422,-5.469445
6050.0,-5.261373,-5.284944,-5.388626,-5.424309,-5.42558,-5.402801,-5.467691,-5.509138
6100.0,-5.306349,-5.335629,-5.528184,-5.521171,-5.517845,-5.434718,-5.626748,-5.599415
6150.0,-5.374346,-5.431221,-5.589287,-5.551789,-5.574989,-5.519837,-5.674306,-5.621607
6200.0,-5.39055,-5.445999,-5.517253,-5.510536,-5.579682,-5.53926,-5.57537,-5.600798
6250.0,-5.380646,-5.413108,-5.506608,-5.493246,-5.596821,-5.515964,-5.564033,-5.586335
6300.0,-5.433487,-5.459642,-5.575466,-5.58008,-5.673637,-5.558053,-5.657328,-5.64202
6350.0,-5.533158,-5.555277,-5.642453,-5.680984,-5.771688,-5.629045,-5.713765,-5.727277
6400.0,-5.564485,-5.580764,-5.65321,-5.677858,-5.781,-5.647236,-5.687627,-5.758101
6450.0,-5.52474,-5.546657,-5.618814,-5.633034,-5.735899,-5.629701,-5.666449,-5.729636
6500.0,-5.553827,-5.561579,-5.648699,-5.696877,-5.79579,-5.650783,-5.733037,-5.751323
6550.0,-5.672481,-5.663216,-5.769582,-5.84788,-5.909375,-5.737183,-5.853071,-5.851739
6600.0,-5.726977,-5.755789,-5.827644,-5.87338,-5.936334,-5.816878,-5.88738,-5.925352
6650.0,-5.670892,-5.728801,-5.766017,-5.780157,-5.887267,-5.806878,-5.831584,-5.90789
6700.0,-5.661806,-5.692793,-5.787335,-5.812088,-5.931062,-5.788142,-5.875969,-5.883118
6750.0,-5.777469,-5.801437,-5.924685,-5.989928,-6.044825,-5.890003,-5.998698,-5.992221
6800.0,-5.869097,-5.945595,-5.98371,-6.034018,-6.109137,-6.015664,-6.02212,-6.141824
6850.0,-5.844163,-5.93061,-5.936513,-5.928739,-6.111255,-5.977045,-5.980132,-6.10996
6900.0,-5.80399,-5.843247,-5.902997,-5.953131,-6.121112,-5.922864,-5.985255,-6.016379
6950.0,-5.893763,-5.935471,-5.991512,-6.102444,-6.195364,-6.036792,-6.0615,-6.120602
7000.0,-6.040975,-6.132921,-6.116837,-6.154346,-6.329645,-6.150921,-6.150021,-6.303313
7050.0,-6.043288,-6.155818,-6.081582,-6.117249,-6.355953,-6.126671,-6.147002,-6.315965
7100.0,-5.937156,-6.014329,-5.983547,-6.084209,-6.249888,-6.06443,-6.099531,-6.181093
7150.0,-5.990858,-6.056987,-6.089088,-6.147491,-6.299422,-6.129481,-6.171991,-6.209139
7200.0,-6.167147,-6.322434,-6.227904,-6.291213,-6.480103,-6.278686,-6.313593,-6.440469
7250.0,-6.196498,-6.377743,-6.206474,-6.301269,-6.497713,-6.309691,-6.341646,-6.500648
7300.0,-6.082956,-6.17262,-6.118184,-6.182886,-6.378239,-6.215558,-6.258519,-6.327761
7350.0,-6.080482,-6.179488,-6.157239,-6.206901,-6.388267,-6.246259,-6.297332,-6.317293
7400.0,-6.258931,-6.459247,-6.296805,-6.398072,-6.565364,-6.439786,-6.469287,-6.551502
7450.0,-6.386132,-6.551358,-6.333729,-6.455657,-6.657355,-6.51165,-6.514202,-6.66421
7500.0,-6.286391,-6.349092,-6.245053,-6.329193,-6.566301,-6.384892,-6.404979,-6.502579
7550.0,-6.183159,-6.26815,-6.235857,-6.312222,-6.50624,-6.357411,-6.396451,-6.412998
7600.0,-6.354828,-6.533486,-6.372856,-6.501777,-6.656362,-6.541222,-6.562691,-6.618805
7650.0,-6.571533,-6.715842,-6.464868,-6.619568,-6.836222,-6.648061,-6.668661,-6.777308
7700.0,-6.505273,-6.552259,-6.387186,-6.519123,-6.783339,-6.556575,-6.592644,-6.658749
7750.0,-6.327854,-6.39134,-6.350003,-6.425278,-6.639578,-6.487754,-6.528998,-6.529259
7800.0,-6.455928,-6.666359,-6.488039,-6.567883,-6.752916,-6.645674,-6.6731,-6.719173
7850.0,-6.742976,-6.982269,-6.600933,-6.76925,-7.007693,-6.859199,-6.861479,-6.952576
7900.0,-6.742897,-6.827186,-6.563848,-6.74295,-7.016503,-6.818555,-6.830896,-6.923144
7950.0,-6.523886,-6.555665,-6.491823,-6.577543,-6.845414,-6.66212,-6.699746,-6.771146
8000.0,-6.565239,-6.826988,-6.532835,-6.694981,-6.872798,-6.843317,-6.799129,-6.841495
8050.0,-6.884885,-7.155481,-6.659788,-7.009828,-7.177066,-7.114633,-7.01614,-7.111155
8100.0,-7.002913,-6.989444,-6.719447,-7.068653,-7.329816,-7.064218,-7.013399,-7.24253
8150.0,-6.732858,-6.700916,-6.632915,-6.78615,-7.098032,-6.839676,-6.847567,-7.009826
8200.0,-6.653845,-6.844689,-6.621635,-6.823974,-6.999449,-6.908028,-6.888078,-6.936723
8250.0,-7.044632,-7.142563,-6.80135,-7.244773,-7.360644,-7.173068,-7.124291,-7.300531
8300.0,-7.226328,-7.104905,-6.949647,-7.283277,-7.564509,-7.172298,-7.220731,-7.428801
8350.0,-6.91876,-6.822495,-6.862871,-6.947636,-7.292672,-6.95737,-7.066005,-7.128115
8400.0,-6.739446,-6.824041,-6.740395,-6.934846,-7.090559,-6.962741,-6.982978,-6.992895
8450.0,-7.080794,-7.146939,-6.925451,-7.266551,-7.359879,-7.233567,-7.204909,-7.263287
8500.0,-7.352735,-7.271771,-7.13764,-7.378057,-7.641953,-7.35271,-7.381963,-7.496844
8550.0,-7.149582,-7.012196,-7.034801,-7.116363,-7.478115,-7.15731,-7.246849,-7.344607
8600.0,-6.864636,-6.887203,-6.862482,-6.991543,-7.188592,-7.062041,-7.099279,-7.115073
8650.0,-7.117887,-7.214631,-6.976534,-7.331068,-7.382887,-7.335748,-7.255041,-7.337576
8700.0,-7.569716,-7.413258,-7.227379,-7.614104,-7.835804,-7.517611,-7.498362,-7.746296
8750.0,-7.491413,-7.166946,-7.269679,-7.394123,-7.839287,-7.31765,-7.485734,-7.681858
8800.0,-7.066858,-6.991396,-7.097978,-7.141617,-7.431226,-7.187594,-7.309761,-7.317098
8850.0,-7.252894,-7.201756,-7.081229,-7.496211,-7.556052,-7.397623,-7.337365,-7.507634
8900.0,-7.843971,-7.367331,-7.47859,-7.813952,-8.17873,-7.544494,-7.702682,-7.932287
8950.0,-7.783122,-7.266055,-7.776436,-7.557806,-8.200136,-7.459014,-7.905196,-7.794859
9000.0,-7.252286,-7.104799,-7.495455,-7.283106,-7.645767,-7.324794,-7.635052,-7.418199
9050.0,-7.332692,-7.154367,-7.278702,-7.536965,-7.676668,-7.380544,-7.55195,-7.524749
9100.0,-7.836736,-7.393375,-7.840837,-7.762383,-8.211665,-7.603466,-8.037945,-7.817449
9150.0,-7.798506,-7.524304,-8.160715,-7.57782,-8.214902,-7.74574,-8.230597,-7.775348
9200.0,-7.339913,-7.381378,-7.674341,-7.351719,-7.738658,-7.640369,-7.820711,-7.522862
9250.0,-7.326878,-7.269575,-7.422862,-7.434914,-7.682326,-7.520885,-7.697852,-7.483314
9300.0,-7.733981,-7.599615,-7.912617,-7.664226,-8.092318,-7.803304,-8.116509,-7.727545
9350.0,-7.858363,-7.930131,-8.118856,-7.723938,-8.263342,-8.107382,-8.28986,-7.916401
9400.0,-7.569992,-7.719077,-7.745351,-7.551902,-7.975077,-7.926759,-7.971759,-7.795108
9450.0,-7.372823,-7.413935,-7.463694,-7.49302,-7.729374,-7.684963,-7.746139,-7.610764
9500.0,-7.723653,-7.727666,-7.759431,-7.768142,-8.091093,-7.973146,-8.009766,-7.822861
9550.0,-8.099148,-8.06724,-8.12251,-7.990799,-8.509496,-8.262167,-8.386526,-8.112718
9600.0,-7.903455,-7.865659,-8.005735,-7.770978,-8.2997,-8.066151,-8.279684,-7.992082
9650.0,-7.540323,-7.525792,-7.612329,-7.596624,-7.904873,-7.790245,-7.910191,-7.732748
9700.0,-7.847616,-7.716493,-7.8147,-7.825522,-8.25466,-7.9279,-8.145671,-7.843553
9750.0,-8.287652,-8.118167,-8.3901,-8.032389,-8.694232,-8.265113,-8.68297,-8.115563
9800.0,-8.066712,-8.131271,-8.319275,-7.905974,-8.431506,-8.302728,-8.551203,-8.138065
9850.0,-7.722927,-7.761216,-7.801767,-7.71181,-8.035268,-8.048192,-8.0729,-7.945256
9900.0,-7.887838,-7.784317,-7.934482,-7.807495,-8.270704,-8.025258,-8.308166,-7.889057
9950.0,-8.210047,-8.379993,-8.4048,-8.12211,-8.609771,-8.529414,-8.712232,-8.218463
10000.0,-8.222636,-8.618521,-8.307672,-8.25855,-8.536134,-8.793442,-8.561676,-8.533974
10050.0,-7.946522,-8.099547,-7.884986,-7.999157,-8.218918,-8.388559,-8.185545,-8.337294
10100.0,-7.885793,-7.95029,-7.844254,-7.932634,-8.197869,-8.247508,-8.215739,-8.071291
10150.0,-8.207185,-8.649802,-8.136606,-8.410585,-8.583316,-8.873744,-8.513246,-8.478443
10200.0,-8.470901,-8.858675,-8.271153,-8.670745,-8.798214,-9.106674,-8.634847,-8.860183
10250.0,-8.278234,-8.242108,-8.083311,-8.236184,-8.548221,-8.595477,-8.414224,-8.5588
10300.0,-7.972753,-8.015387,-7.882312,-8.081931,-8.31556,-8.32131,-8.252621,-8.185634
10350.0,-8.281606,-8.560421,-8.101663,-8.565793,-8.745681,-8.765919,-8.590577,-8.552532
10400.0,-8.72527,-8.775749,-8.50995,-8.765678,-9.061827,-9.026435,-8.979205,-8.919488
10450.0,-8.511237,-8.354781,-8.463694,-8.347397,-8.786387,-8.71342,-8.772521,-8.710313
10500.0,-8.080438,-8.034953,-8.082891,-8.137646,-8.426519,-8.376158,-8.376955,-8.306225
10550.0,-8.286147,-8.397041,-8.225336,-8.485665,-8.765298,-8.659428,-8.711227,-8.474985
10600.0,-8.724231,-8.78882,-8.703576,-8.797835,-9.055163,-9.120214,-9.096863,-8.951329
10650.0,-8.625697,-8.593209,-8.652442,-8.579261,-8.904811,-9.026742,-8.863884,-8.966878
10700.0,-8.230755,-8.172753,-8.220894,-8.237519,-8.572025,-8.563113,-8.449505,-8.519722
10750.0,-8.253713,-8.432424,-8.223986,-8.531287,-8.731477,-8.732757,-8.594808,-8.567634
10800.0,-8.700967,-8.900613,-8.62407,-9.000695,-9.040655,-9.282544,-8.941023,-9.1247
10850.0,-8.868401,-8.765888,-8.744195,-8.844355,-9.134971,-9.207812,-8.974516,-9.176779
10900.0,-8.558255,-8.341076,-8.467888,-8.410766,-8.865002,-8.734164,-8.712396,-8.675912
10950.0,-8.354494,-8.435547,-8.284775,-8.622683,-8.795165,-8.777852,-8.626373,-8.615579
11000.0,-8.793949,-8.765887,-8.622413,-9.003269,-9.140653,-9.19558,-9.059639,-9.058765
11050.0,-9.178325,-8.782281,-9.013293,-8.881839,-9.435731,-9.256848,-9.433564,-9.144511
11100.0,-8.874908,-8.51557,-8.875886,-8.533904,-9.171744,-8.968056,-9.15616,-8.799594
11150.0,-8.473975,-8.381054,-8.481092,-8.551283,-8.905359,-8.796232,-8.789322,-8.610312
11200.0,-8.846747,-8.638946,-8.744613,-8.809799,-9.195802,-9.101011,-9.294034,-8.885789
11250.0,-9.240022,-8.923306,-9.269368,-8.889363,-9.475157,-9.47576,-9.735609,-9.155528
11300.0,-8.955909,-8.806437,-9.101373,-8.666641,-9.244051,-9.35092,-9.346063,-9.015058
11350.0,-8.562646,-8.504668,-8.604669,-8.539231,-8.945466,-8.951346,-8.843827,-8.752089
