Freq (MHz),P1_TX1_P2_RX1 SDD21,P1_TX2_P2_RX2 SDD21,P1_TX3_P2_RX3 SDD21,P1_TX4_P2_RX4 SDD21,P2_TX1_P1_RX1 SDD21,P2_TX2_P1_RX2 SDD21,P2_TX3_P1_RX3 SDD21,P2_TX4_P1_RX4 SDD21
50.0,-0.288235,-0.297319,-0.306417,-0.313999,-0.28607,-0.297457,-0.306465,-0.317567
100.0,-0.403723,-0.416842,-0.431809,-0.444634,-0.404519,-0.419279,-0.433197,-0.446527
150.0,-0.509276,-0.526545,-0.540696,-0.555461,-0.508864,-0.528282,-0.544707,-0.560644
200.0,-0.601926,-0.620521,-0.639462,-0.656422,-0.604264,-0.623428,-0.644466,-0.660318
250.0,-0.694001,-0.713607,-0.734752,-0.752577,-0.693931,-0.718178,-0.739013,-0.759076
300.0,-0.771713,-0.796364,-0.81861,-0.839158,-0.778765,-0.800877,-0.823852,-0.843884
350.0,-0.859318,-0.882904,-0.906607,-0.927678,-0.860361,-0.888083,-0.912559,-0.939013
400.0,-0.945683,-0.973345,-1.002065,-1.027436,-0.948087,-0.984004,-1.008759,-1.036522
450.0,-1.022923,-1.048702,-1.077925,-1.101289,-1.025595,-1.061137,-1.085042,-1.111601
500.0,-1.090428,-1.119119,-1.148578,-1.173979,-1.094914,-1.1289,-1.158795,-1.186146
550.0,-1.16563,-1.198461,-1.230093,-1.266944,-1.172295,-1.214264,-1.243974,-1.284886
600.0,-1.238691,-1.280763,-1.310601,-1.343881,-1.247009,-1.293131,-1.32051,-1.355743
650.0,-1.293393,-1.329676,-1.361995,-1.389557,-1.30466,-1.337589,-1.370275,-1.400868
700.0,-1.349669,-1.387721,-1.418089,-1.459906,-1.359582,-1.398697,-1.430325,-1.476776
750.0,-1.419248,-1.466418,-1.497142,-1.545182,-1.42921,-1.486455,-1.50972,-1.560473
800.0,-1.478447,-1.528445,-1.563093,-1.601968,-1.495062,-1.545131,-1.566889,-1.606399
850.0,-1.522752,-1.55837,-1.596261,-1.635244,-1.531169,-1.57198,-1.599892,-1.638014
900.0,-1.569774,-1.614183,-1.646749,-1.694381,-1.579378,-1.628228,-1.655627,-1.70279
950.0,-1.633001,-1.689809,-1.722129,-1.769499,-1.65326,-1.712675,-1.731733,-1.7783
1000.0,-1.689303,-1.740427,-1.774838,-1.813954,-1.708553,-1.764453,-1.776344,-1.816942
1050.0,-1.726102,-1.760822,-1.805238,-1.846801,-1.738443,-1.776063,-1.802316,-1.847307
1100.0,-1.771442,-1.813886,-1.851917,-1.901859,-1.782256,-1.834258,-1.856945,-1.91149
1150.0,-1.836931,-1.887651,-1.918297,-1.973445,-1.854842,-1.919488,-1.927512,-1.9797
1200.0,-1.88671,-1.920937,-1.951722,-2.011125,-1.902589,-1.952904,-1.960878,-2.010847
1250.0,-1.913827,-1.94408,-1.98455,-2.043028,-1.929314,-1.964585,-1.9893,-2.046106
1300.0,-1.957623,-1.995212,-2.033272,-2.09041,-1.972877,-2.02359,-2.04328,-2.097883
1350.0,-2.018607,-2.058031,-2.084199,-2.136157,-2.034664,-2.102666,-2.09459,-2.145353
1400.0,-2.058053,-2.089322,-2.122699,-2.183083,-2.070696,-2.124274,-2.127307,-2.175949
1450.0,-2.08922,-2.11739,-2.165755,-2.228382,-2.097844,-2.142767,-2.16151,-2.221293
1500.0,-2.130766,-2.162775,-2.201613,-2.264477,-2.147067,-2.199271,-2.210598,-2.26014
1550.0,-2.179936,-2.214563,-2.242057,-2.298884,-2.209639,-2.265938,-2.254559,-2.300508
1600.0,-2.215386,-2.25004,-2.286913,-2.355722,-2.240272,-2.283655,-2.287046,-2.348682
1650.0,-2.253592,-2.278783,-2.331472,-2.405631,-2.267915,-2.307227,-2.327458,-2.390588
1700.0,-2.289602,-2.32324,-2.368203,-2.424239,-2.318124,-2.367893,-2.37368,-2.424398
1750.0,-2.331865,-2.370028,-2.402292,-2.464586,-2.370333,-2.42214,-2.412168,-2.465301
1800.0,-2.37481,-2.410244,-2.444792,-2.532522,-2.39669,-2.436469,-2.444866,-2.519365
1850.0,-2.414246,-2.447856,-2.494933,-2.56873,-2.434485,-2.47684,-2.493574,-2.55979
1900.0,-2.455768,-2.485782,-2.530076,-2.580113,-2.495365,-2.538575,-2.53881,-2.5881
1950.0,-2.490883,-2.517799,-2.561163,-2.62624,-2.535327,-2.572928,-2.5676,-2.635757
2000.0,-2.529521,-2.56767,-2.60921,-2.685899,-2.548901,-2.59265,-2.605071,-2.682763
2050.0,-2.581882,-2.620601,-2.65968,-2.707905,-2.598977,-2.644261,-2.65671,-2.714905
2100.0,-2.624527,-2.636118,-2.690054,-2.733492,-2.658721,-2.692637,-2.698049,-2.757409
2150.0,-2.645759,-2.667905,-2.730021,-2.786729,-2.675827,-2.719784,-2.731144,-2.805886
2200.0,-2.688063,-2.740028,-2.779843,-2.828127,-2.700802,-2.758338,-2.767179,-2.842642
2250.0,-2.752516,-2.778516,-2.811644,-2.844908,-2.764862,-2.807304,-2.812467,-2.877927
2300.0,-2.783358,-2.779601,-2.851059,-2.886858,-2.816317,-2.847095,-2.865419,-2.925306
2350.0,-2.795042,-2.823807,-2.895589,-2.9338,-2.824593,-2.882052,-2.894921,-2.963895
2400.0,-2.850099,-2.891169,-2.939749,-2.965661,-2.854246,-2.928537,-2.922426,-3.000877
2450.0,-2.906736,-2.911462,-2.969241,-2.986411,-2.910432,-2.968138,-2.967477,-3.042444
2500.0,-2.92407,-2.927385,-3.009023,-3.029847,-2.953774,-3.00495,-3.01661,-3.086927
2550.0,-2.944203,-2.972046,-3.052671,-3.078043,-2.975666,-3.041695,-3.045792,-3.124917
2600.0,-2.999492,-3.021691,-3.086953,-3.112386,-3.009195,-3.073485,-3.074896,-3.153817
2650.0,-3.051375,-3.052223,-3.11572,-3.134584,-3.062976,-3.109046,-3.122245,-3.191337
2700.0,-3.068298,-3.075372,-3.162812,-3.186295,-3.105119,-3.149637,-3.168751,-3.239298
2750.0,-3.094678,-3.120335,-3.203099,-3.242802,-3.117984,-3.177542,-3.192516,-3.267024
2800.0,-3.149883,-3.185042,-3.230687,-3.266015,-3.157174,-3.207012,-3.224575,-3.28551
2850.0,-3.198063,-3.208106,-3.255911,-3.291128,-3.210966,-3.241296,-3.272653,-3.33236
2900.0,-3.214681,-3.225638,-3.309078,-3.339708,-3.242473,-3.283013,-3.318897,-3.3762
2950.0,-3.246431,-3.281918,-3.351948,-3.376306,-3.259541,-3.306728,-3.338396,-3.394138
3000.0,-3.301961,-3.330039,-3.370127,-3.401136,-3.298244,-3.337082,-3.374371,-3.426476
3050.0,-3.333561,-3.339545,-3.397671,-3.437025,-3.337087,-3.377799,-3.432168,-3.466165
3100.0,-3.351985,-3.373664,-3.450193,-3.475437,-3.366597,-3.424307,-3.465475,-3.500931
3150.0,-3.396042,-3.424034,-3.48776,-3.51281,-3.398329,-3.439049,-3.480357,-3.539626
3200.0,-3.438998,-3.449852,-3.509243,-3.551696,-3.42515,-3.466432,-3.533672,-3.573536
3250.0,-3.452621,-3.459458,-3.529839,-3.572531,-3.453741,-3.512421,-3.5759,-3.589298
3300.0,-3.474387,-3.493892,-3.572495,-3.604443,-3.490542,-3.540262,-3.583776,-3.626282
3350.0,-3.521258,-3.541824,-3.614378,-3.649592,-3.519145,-3.555014,-3.615971,-3.673004
3400.0,-3.556707,-3.574185,-3.639176,-3.683167,-3.553902,-3.594543,-3.677487,-3.702072
3450.0,-3.58131,-3.594432,-3.662053,-3.709062,-3.5912,-3.637817,-3.703426,-3.720561
3500.0,-3.610814,-3.630414,-3.705115,-3.748587,-3.628247,-3.665344,-3.715453,-3.764919
3550.0,-3.654045,-3.674587,-3.745272,-3.794818,-3.661815,-3.68655,-3.760202,-3.822204
3600.0,-3.697791,-3.715509,-3.777323,-3.824836,-3.695954,-3.731877,-3.825509,-3.850284
3650.0,-3.723297,-3.739563,-3.807096,-3.851402,-3.733064,-3.786564,-3.849616,-3.863701
3700.0,-3.748529,-3.766307,-3.838506,-3.889594,-3.766765,-3.81448,-3.846724,-3.922651
3750.0,-3.798624,-3.817498,-3.887204,-3.954968,-3.803588,-3.83106,-3.91259,-4.007583
3800.0,-3.845071,-3.859046,-3.947811,-3.98495,-3.840617,-3.893497,-4.000007,-4.009416
3850.0,-3.869012,-3.886062,-3.964724,-3.984764,-3.888099,-3.959467,-3.993871,-4.000512
3900.0,-3.899966,-3.908564,-3.975314,-4.046304,-3.944117,-3.965188,-3.989456,-4.091268
3950.0,-3.947362,-3.955602,-4.067714,-4.113551,-3.967729,-3.990594,-4.109648,-4.160863
4000.0,-4.000206,-4.031762,-4.14703,-4.120096,-4.004126,-4.108302,-4.195605,-4.141116
4050.0,-4.039558,-4.057983,-4.112345,-4.133711,-4.088381,-4.147038,-4.137213,-4.146249
4100.0,-4.067897,-4.046494,-4.132073,-4.198964,-4.124005,-4.105072,-4.153332,-4.218973
4150.0,-4.085304,-4.111287,-4.233853,-4.235127,-4.10701,-4.167838,-4.289775,-4.261174
4200.0,-4.148177,-4.191506,-4.262685,-4.237511,-4.185353,-4.270393,-4.317835,-4.256319
4250.0,-4.207025,-4.185234,-4.22813,-4.260697,-4.287535,-4.262314,-4.25529,-4.269498
4300.0,-4.194511,-4.183448,-4.262314,-4.307805,-4.2739,-4.236689,-4.288072,-4.321698
4350.0,-4.201388,-4.244979,-4.333172,-4.341031,-4.244573,-4.311491,-4.3898,-4.369539
4400.0,-4.275992,-4.303542,-4.358841,-4.373,-4.314075,-4.401534,-4.418357,-4.384083
4450.0,-4.328614,-4.313808,-4.355716,-4.401085,-4.405483,-4.400969,-4.383015,-4.405607
4500.0,-4.306239,-4.312091,-4.380942,-4.432507,-4.415212,-4.373108,-4.401207,-4.448255
4550.0,-4.310093,-4.359624,-4.437103,-4.470595,-4.388617,-4.435061,-4.488853,-4.493936
4600.0,-4.394064,-4.427324,-4.483495,-4.499894,-4.458386,-4.54145,-4.532022,-4.52005
4650.0,-4.469159,-4.453276,-4.490707,-4.524833,-4.598389,-4.553951,-4.504204,-4.542833
4700.0,-4.454658,-4.441896,-4.509083,-4.559121,-4.626591,-4.517474,-4.527481,-4.582137
4750.0,-4.430153,-4.492152,-4.570743,-4.594245,-4.556168,-4.586962,-4.5993,-4.618596
4800.0,-4.529335,-4.579366,-4.602428,-4.62147,-4.640448,-4.70037,-4.623098,-4.65459
4850.0,-4.64307,-4.589837,-4.603408,-4.658801,-4.838678,-4.687725,-4.624051,-4.689668
4900.0,-4.601854,-4.575007,-4.64191,-4.715793,-4.818337,-4.651367,-4.657548,-4.735084
4950.0,-4.548187,-4.634464,-4.675994,-4.7653,-4.685553,-4.72639,-4.69753,-4.786561
5000.0,-4.663096,-4.694474,-4.695595,-4.774646,-4.794135,-4.79534,-4.729262,-4.802423
5050.0,-4.751599,-4.686925,-4.724712,-4.81501,-4.940256,-4.778381,-4.757214,-4.848486
5100.0,-4.689598,-4.69325,-4.756196,-4.928706,-4.861345,-4.772495,-4.804224,-4.926075
5150.0,-4.659216,-4.734294,-4.79773,-4.948689,-4.787799,-4.814639,-4.850247,-4.938705
5200.0,-4.747342,-4.768012,-4.82601,-4.89959,-4.868335,-4.858633,-4.865768,-4.935211
5250.0,-4.824523,-4.792699,-4.846643,-4.969249,-4.951447,-4.881005,-4.903215,-5.003977
5300.0,-4.810395,-4.817826,-4.895302,-5.071627,-4.944007,-4.909634,-4.977344,-5.061977
5350.0,-4.793124,-4.84219,-4.926585,-5.042589,-4.911759,-4.930888,-4.987926,-5.047105
5400.0,-4.842713,-4.872125,-4.938458,-5.003084,-4.945576,-4.966407,-4.97752,-5.052262
5450.0,-4.925221,-4.915273,-4.962242,-5.054225,-5.055224,-5.008146,-5.023011,-5.112439
5500.0,-4.963636,-4.946737,-4.999229,-5.131216,-5.129023,-5.0422,-5.082874,-5.173698
5550.0,-4.952871,-4.962429,-5.032113,-5.155982,-5.093279,-5.056014,-5.103976,-5.186256
5600.0,-4.971271,-4.994532,-5.066516,-5.137367,-5.077176,-5.080855,-5.11083,-5.181107
5650.0,-5.070707,-5.031528,-5.08442,-5.151116,-5.205686,-5.113787,-5.131221,-5.234904
5700.0,-5.126466,-5.059537,-5.123197,-5.247846,-5.292072,-5.148979,-5.211445,-5.33292
5750.0,-5.09864,-5.086717,-5.187999,-5.307226,-5.217817,-5.185594,-5.307862,-5.334788
5800.0,-5.121202,-5.114968,-5.247178,-5.270984,-5.199808,-5.224458,-5.304735,-5.306233
5850.0,-5.176572,-5.146495,-5.248904,-5.284213,-5.29618,-5.255349,-5.280716,-5.388486
5900.0,-5.214037,-5.192061,-5.282374,-5.385544,-5.34308,-5.293153,-5.415202,-5.461677
5950.0,-5.227779,-5.247555,-5.38585,-5.410929,-5.332455,-5.362927,-5.516626,-5.425146
6000.0,-5.229747,-5.274473,-5.409304,-5.378218,-5.321057,-5.409395,-5.43229,-5.436192
6050.0,-5.25357,-5.287358,-5.375741,-5.394398,-5.365113,-5.397761,-5.420913,-5.488045
6100.0,-5.312561,-5.344245,-5.435473,-5.446381,-5.455771,-5.46134,-5.559297,-5.502396
6150.0,-5.365719,-5.420482,-5.494278,-5.483303,-5.505824,-5.562074,-5.578033,-5.525906
6200.0,-5.370435,-5.429424,-5.492279,-5.49104,-5.511517,-5.547438,-5.509993,-5.549049
6250.0,-5.375477,-5.41953,-5.49182,-5.493157,-5.527036,-5.513046,-5.519398,-5.558318
6300.0,-5.432578,-5.472411,-5.506069,-5.535374,-5.594023,-5.57591,-5.589262,-5.594158
6350.0,-5.521536,-5.542922,-5.550149,-5.583724,-5.693932,-5.643816,-5.629639,-5.636937
6400.0,-5.539289,-5.570877,-5.596855,-5.620717,-5.703871,-5.642167,-5.621513,-5.664763
6450.0,-5.506534,-5.553812,-5.606102,-5.635756,-5.652713,-5.627827,-5.617411,-5.676486
6500.0,-5.558476,-5.572913,-5.612182,-5.650519,-5.704197,-5.670721,-5.680686,-5.705094
6550.0,-5.657484,-5.6598,-5.666101,-5.715155,-5.825941,-5.769653,-5.766817,-5.767781
6600.0,-5.680141,-5.727623,-5.737089,-5.765288,-5.849827,-5.820348,-5.781969,-5.816588
6650.0,-5.636116,-5.700215,-5.747155,-5.757139,-5.79934,-5.781881,-5.758141,-5.822116
6700.0,-5.661436,-5.705625,-5.743566,-5.776571,-5.844625,-5.806275,-5.828733,-5.832166
6750.0,-5.7693,-5.835072,-5.798113,-5.85672,-5.961844,-5.956271,-5.917609,-5.926204
6800.0,-5.822094,-5.937093,-5.868409,-5.892989,-6.018823,-6.011116,-5.918503,-5.994781
6850.0,-5.799656,-5.896961,-5.895252,-5.888937,-6.015205,-5.925266,-5.894745,-5.963756
6900.0,-5.795873,-5.863652,-5.875462,-5.944913,-6.013835,-5.964268,-5.92081,-5.981775
6950.0,-5.890379,-5.984231,-5.912618,-5.99955,-6.096984,-6.12891,-6.005505,-6.074609
7000.0,-6.006084,-6.139039,-6.018419,-6.016435,-6.23363,-6.165573,-6.06033,-6.130354
7050.0,-5.991114,-6.107366,-6.0325,-6.075617,-6.245598,-6.083486,-6.026243,-6.121068
7100.0,-5.915497,-5.995511,-5.99496,-6.099966,-6.130076,-6.081891,-6.028489,-6.094138
7150.0,-6.007607,-6.118639,-6.062463,-6.080512,-6.191784,-6.227982,-6.14462,-6.168741
7200.0,-6.154184,-6.334808,-6.129742,-6.156483,-6.36351,-6.343255,-6.23294,-6.283061
7250.0,-6.129403,-6.274479,-6.136344,-6.214966,-6.361242,-6.269642,-6.198126,-6.268038
7300.0,-6.035526,-6.11471,-6.134397,-6.172092,-6.23082,-6.196635,-6.155324,-6.20987
7350.0,-6.089627,-6.241309,-6.138935,-6.170354,-6.260798,-6.354536,-6.24758,-6.288714
7400.0,-6.253397,-6.471954,-6.188546,-6.27865,-6.441323,-6.529439,-6.366543,-6.427995
7450.0,-6.304478,-6.427136,-6.252008,-6.345918,-6.502044,-6.45596,-6.33342,-6.439936
7500.0,-6.200774,-6.25212,-6.250751,-6.303107,-6.401882,-6.329344,-6.257293,-6.34579
7550.0,-6.182384,-6.331631,-6.228012,-6.285841,-6.382993,-6.482992,-6.344205,-6.399221
7600.0,-6.378559,-6.584095,-6.291502,-6.391236,-6.550456,-6.688403,-6.496456,-6.5594
7650.0,-6.515078,-6.621354,-6.388493,-6.494144,-6.687051,-6.634474,-6.510697,-6.583906
7700.0,-6.40156,-6.431207,-6.393131,-6.477653,-6.605263,-6.493258,-6.415301,-6.479629
7750.0,-6.3044,-6.436467,-6.3695,-6.411865,-6.502964,-6.579603,-6.445954,-6.490398
7800.0,-6.503433,-6.748296,-6.425129,-6.499749,-6.649858,-6.837713,-6.639509,-6.65389
7850.0,-6.709273,-6.862265,-6.49549,-6.675721,-6.869184,-6.912245,-6.735737,-6.75954
7900.0,-6.614706,-6.619754,-6.537867,-6.70263,-6.832836,-6.712655,-6.629482,-6.717858
7950.0,-6.455616,-6.599858,-6.531233,-6.582575,-6.677812,-6.707133,-6.563876,-6.66989
8000.0,-6.627872,-6.946292,-6.513344,-6.634455,-6.758848,-7.053963,-6.756354,-6.820206
8050.0,-6.891125,-7.00086,-6.56926,-6.882983,-7.044343,-7.157439,-6.911618,-7.081793
8100.0,-6.87444,-6.733218,-6.685809,-6.982057,-7.132979,-6.90705,-6.803013,-7.058907
8150.0,-6.620325,-6.695402,-6.708908,-6.780162,-6.906287,-6.843003,-6.677033,-6.82716
8200.0,-6.700515,-6.937632,-6.645377,-6.775029,-6.890487,-7.162086,-6.818931,-6.991514
8250.0,-7.072144,-7.035639,-6.680924,-7.108014,-7.246865,-7.309877,-7.041822,-7.29382
8300.0,-7.101044,-6.85357,-6.862686,-7.198056,-7.371187,-7.071834,-7.026196,-7.166759
8350.0,-6.790339,-6.740322,-6.931776,-6.953959,-7.094902,-6.922919,-6.844576,-6.918147
8400.0,-6.78249,-6.921558,-6.797843,-6.883429,-6.973302,-7.176691,-6.889586,-7.016391
8450.0,-7.150301,-7.103548,-6.792916,-7.137893,-7.258675,-7.406282,-7.160336,-7.271108
8500.0,-7.276598,-7.026483,-6.998159,-7.305054,-7.465998,-7.268964,-7.207125,-7.299436
8550.0,-6.992651,-6.866441,-7.074544,-7.132989,-7.279015,-7.045509,-6.989074,-7.085164
8600.0,-6.853464,-6.991349,-6.944742,-6.958717,-7.062474,-7.228922,-6.960801,-7.057089
8650.0,-7.219651,-7.239825,-6.882905,-7.175206,-7.305271,-7.531043,-7.223364,-7.421552
8700.0,-7.533653,-7.182427,-7.04708,-7.475367,-7.686444,-7.439327,-7.376075,-7.608015
8750.0,-7.297301,-6.977625,-7.256591,-7.367648,-7.627649,-7.178957,-7.224488,-7.328414
8800.0,-7.002605,-7.070594,-7.23472,-7.106273,-7.279675,-7.300847,-7.081979,-7.231444
8850.0,-7.379351,-7.252586,-7.062522,-7.309635,-7.484912,-7.562008,-7.300426,-7.635807
8900.0,-7.819852,-7.227619,-7.224671,-7.606842,-8.033445,-7.513256,-7.662008,-7.752417
8950.0,-7.561981,-7.102069,-7.655502,-7.475655,-7.962131,-7.320581,-7.608789,-7.426839
9000.0,-7.161742,-7.09542,-7.622152,-7.216217,-7.482436,-7.331089,-7.291235,-7.318847
9050.0,-7.499172,-7.231725,-7.253266,-7.334753,-7.641172,-7.530361,-7.530751,-7.558694
9100.0,-7.898729,-7.399817,-7.495866,-7.532786,-8.132865,-7.681658,-7.99254,-7.660841
9150.0,-7.675203,-7.392166,-7.932852,-7.473854,-8.042689,-7.62188,-7.826465,-7.511673
9200.0,-7.258352,-7.251457,-7.72295,-7.303081,-7.591747,-7.471887,-7.41853,-7.364472
9250.0,-7.423665,-7.378348,-7.364437,-7.303037,-7.619201,-7.652768,-7.644844,-7.477888
9300.0,-7.790861,-7.752725,-7.56556,-7.468435,-8.011173,-8.033472,-7.989645,-7.73816
9350.0,-7.746497,-7.742272,-7.84147,-7.580137,-8.09086,-7.980546,-7.840237,-7.784257
9400.0,-7.426452,-7.426364,-7.716994,-7.503142,-7.790865,-7.655619,-7.514147,-7.57375
9450.0,-7.415887,-7.561091,-7.455344,-7.400212,-7.639949,-7.834437,-7.590576,-7.589247
9500.0,-7.813493,-7.940391,-7.491954,-7.549843,-8.019273,-8.22468,-7.917703,-7.938484
9550.0,-7.997663,-7.877488,-7.800813,-7.771324,-8.347838,-8.120733,-7.997883,-8.017093
9600.0,-7.704277,-7.54755,-7.904659,-7.677407,-8.091461,-7.777655,-7.719864,-7.74605
9650.0,-7.553867,-7.61303,-7.647833,-7.515333,-7.786512,-7.834086,-7.683212,-7.685556
9700.0,-7.984051,-7.944437,-7.592837,-7.620636,-8.18412,-8.165822,-8.137459,-7.963306
9750.0,-8.239527,-8.041142,-8.007014,-7.803922,-8.544921,-8.235746,-8.308456,-8.122104
9800.0,-7.882841,-7.765375,-8.140826,-7.778557,-8.232318,-7.972576,-7.902435,-7.961276
9850.0,-7.683702,-7.700297,-7.804184,-7.660667,-7.904499,-7.923019,-7.855147,-7.807599
9900.0,-7.990206,-8.10369,-7.738177,-7.674088,-8.159469,-8.378296,-8.290771,-8.060777
9950.0,-8.178092,-8.42117,-8.047039,-7.898076,-8.425951,-8.700104,-8.318891,-8.4684
10000.0,-8.047688,-8.093574,-8.097382,-8.070237,-8.318395,-8.386382,-7.977252,-8.397721
10050.0,-7.828467,-7.886023,-7.860256,-7.917536,-8.057704,-8.132615,-7.904074,-8.041822
10100.0,-7.905675,-8.392883,-7.774927,-7.817314,-8.105156,-8.695593,-8.124101,-8.313077
10150.0,-8.201339,-8.716431,-7.932674,-8.190736,-8.445812,-9.058003,-8.267487,-8.860522
10200.0,-8.28452,-8.264289,-8.088463,-8.432384,-8.600815,-8.597924,-8.167757,-8.685928
10250.0,-8.041485,-7.980782,-8.049311,-8.111286,-8.344985,-8.278108,-7.995212,-8.176256
10300.0,-7.932962,-8.396407,-7.920146,-7.96763,-8.20101,-8.761961,-8.132613,-8.438308
10350.0,-8.31534,-8.633825,-7.982735,-8.347099,-8.614904,-9.046819,-8.514896,-8.952322
10400.0,-8.537184,-8.293468,-8.309724,-8.496584,-8.872062,-8.683044,-8.560177,-8.801864
10450.0,-8.212053,-8.039133,-8.411968,-8.197521,-8.574363,-8.349178,-8.213169,-8.298003
10500.0,-8.00396,-8.301789,-8.126079,-8.062896,-8.325851,-8.677436,-8.295453,-8.411447
10550.0,-8.351976,-8.618985,-8.112632,-8.346972,-8.645162,-9.092155,-8.728125,-8.960828
10600.0,-8.575193,-8.490691,-8.50182,-8.587096,-8.86932,-8.95031,-8.704609,-9.03312
10650.0,-8.336862,-8.178175,-8.579996,-8.411246,-8.682719,-8.543276,-8.319434,-8.547309
10700.0,-8.081405,-8.325424,-8.262018,-8.185457,-8.421872,-8.75776,-8.326752,-8.496615
10750.0,-8.295955,-8.708669,-8.175007,-8.464015,-8.574686,-9.329267,-8.642811,-9.153079
10800.0,-8.617246,-8.676574,-8.479412,-8.842553,-8.857083,-9.256776,-8.732662,-9.315416
10850.0,-8.584508,-8.332789,-8.6698,-8.662517,-8.89348,-8.730602,-8.515375,-8.736667
10900.0,-8.295245,-8.397646,-8.494105,-8.353982,-8.66358,-8.858413,-8.392108,-8.553223
10950.0,-8.355272,-8.715566,-8.319633,-8.592694,-8.672881,-9.335901,-8.671107,-9.098187
11000.0,-8.777042,-8.75412,-8.546364,-8.905558,-9.029307,-9.283534,-9.077483,-9.246361
11050.0,-8.906683,-8.498197,-8.919627,-8.755149,-9.245143,-8.906578,-8.982615,-8.80598
11100.0,-8.53483,-8.411315,-8.875585,-8.489478,-8.967126,-8.860489,-8.620581,-8.580776
11150.0,-8.47066,-8.635829,-8.517622,-8.555302,-8.788689,-9.172267,-8.905061,-8.957381
11200.0,-8.932687,-8.879065,-8.693142,-8.810961,-9.119204,-9.39639,-9.469927,-9.280675
11250.0,-9.05449,-8.742321,-9.195103,-8.845918,-9.334813,-9.223578,-9.279975,-9.067561
11300.0,-8.64976,-8.510386,-9.110984,-8.628818,-9.064943,-8.939493,-8.746225,-8.728359
11350.0,-8.524858,-8.708339,-8.639094,-8.550869,-8.830137,-9.209898,-8.999247,-8.995006
