Freq (MHz),P1_TX1_P2_RX1 SDD21,P1_TX2_P2_RX2 SDD21,P1_TX3_P2_RX3 SDD21,P1_TX4_P2_RX4 SDD21,P2_TX1_P1_RX1 SDD21,P2_TX2_P1_RX2 SDD21,P2_TX3_P1_RX3 SDD21,P2_TX4_P1_RX4 SDD21
50.0,-0.287356,-0.294514,-0.30437,-0.313638,-0.286765,-0.293456,-0.304731,-0.314354
100.0,-0.404054,-0.416031,-0.42771,-0.440646,-0.406781,-0.416278,-0.431008,-0.444528
150.0,-0.509327,-0.522131,-0.537376,-0.551792,-0.510943,-0.522752,-0.541052,-0.557194
200.0,-0.601139,-0.616264,-0.634234,-0.651217,-0.602881,-0.615987,-0.639632,-0.655242
250.0,-0.692574,-0.709583,-0.729967,-0.747397,-0.696065,-0.710362,-0.73464,-0.752477
300.0,-0.769508,-0.791691,-0.81261,-0.834093,-0.779817,-0.793753,-0.820093,-0.836555
350.0,-0.854869,-0.879266,-0.903113,-0.919446,-0.862162,-0.88096,-0.909324,-0.930746
400.0,-0.944442,-0.971053,-0.996337,-1.016665,-0.953632,-0.975326,-1.006201,-1.029482
450.0,-1.019225,-1.046262,-1.072555,-1.093,-1.03176,-1.053885,-1.082924,-1.103378
500.0,-1.08771,-1.111889,-1.141488,-1.166521,-1.098044,-1.122157,-1.156228,-1.176879
550.0,-1.163592,-1.192849,-1.224588,-1.254693,-1.177409,-1.205647,-1.242493,-1.270225
600.0,-1.237806,-1.27569,-1.302943,-1.332538,-1.254157,-1.284416,-1.318909,-1.341945
650.0,-1.291899,-1.323956,-1.353794,-1.380689,-1.310496,-1.330378,-1.36744,-1.389805
700.0,-1.348036,-1.37846,-1.411213,-1.446499,-1.368318,-1.388246,-1.428143,-1.46522
750.0,-1.41617,-1.459229,-1.491082,-1.52634,-1.440468,-1.474425,-1.506136,-1.544766
800.0,-1.478085,-1.526721,-1.554007,-1.580783,-1.510552,-1.533028,-1.564609,-1.591203
850.0,-1.521916,-1.556157,-1.586754,-1.619988,-1.546264,-1.563121,-1.599749,-1.62938
900.0,-1.565395,-1.607308,-1.639444,-1.685413,-1.595464,-1.616086,-1.652495,-1.700319
950.0,-1.632195,-1.686817,-1.714374,-1.751506,-1.666669,-1.695388,-1.727254,-1.767354
1000.0,-1.691425,-1.743416,-1.763558,-1.79672,-1.724006,-1.74751,-1.774656,-1.802502
1050.0,-1.728887,-1.761587,-1.795298,-1.838565,-1.753984,-1.763355,-1.801809,-1.842325
1100.0,-1.769546,-1.813648,-1.850564,-1.89976,-1.799411,-1.818129,-1.854365,-1.913207
1150.0,-1.83551,-1.892745,-1.919571,-1.962176,-1.878625,-1.904363,-1.924801,-1.97464
1200.0,-1.8894,-1.930807,-1.949568,-1.993652,-1.927036,-1.938509,-1.96069,-1.998211
1250.0,-1.917933,-1.947307,-1.980396,-2.033815,-1.949314,-1.953673,-1.991186,-2.037655
1300.0,-1.958445,-2.001153,-2.033131,-2.090176,-1.995831,-2.008164,-2.043855,-2.09968
1350.0,-2.016219,-2.065675,-2.083683,-2.132456,-2.063354,-2.082295,-2.098197,-2.140937
1400.0,-2.062178,-2.095226,-2.119198,-2.167892,-2.104364,-2.108839,-2.129014,-2.170046
1450.0,-2.092765,-2.12101,-2.158838,-2.21784,-2.128635,-2.129658,-2.164993,-2.220617
1500.0,-2.1331,-2.173152,-2.197307,-2.261375,-2.17826,-2.187606,-2.21249,-2.266215
1550.0,-2.181084,-2.227502,-2.241112,-2.29624,-2.245344,-2.25379,-2.2591,-2.299218
1600.0,-2.219803,-2.25912,-2.281052,-2.348363,-2.274588,-2.272639,-2.290871,-2.340213
1650.0,-2.258312,-2.289604,-2.323786,-2.397071,-2.297605,-2.295324,-2.332434,-2.389166
1700.0,-2.296162,-2.340209,-2.361614,-2.422224,-2.350468,-2.357735,-2.379815,-2.429055
1750.0,-2.337325,-2.389253,-2.399984,-2.459317,-2.410472,-2.412958,-2.420109,-2.465909
1800.0,-2.383041,-2.420839,-2.443894,-2.523024,-2.440385,-2.427034,-2.450622,-2.511131
1850.0,-2.423039,-2.45546,-2.491706,-2.561034,-2.469154,-2.459927,-2.492694,-2.555969
1900.0,-2.462981,-2.506407,-2.528001,-2.577936,-2.530608,-2.523921,-2.539387,-2.585771
1950.0,-2.499569,-2.538861,-2.557465,-2.627533,-2.576333,-2.5627,-2.570207,-2.628578
2000.0,-2.53668,-2.567615,-2.608219,-2.680535,-2.599528,-2.581572,-2.608715,-2.67806
2050.0,-2.592858,-2.617449,-2.654212,-2.703798,-2.636528,-2.632153,-2.658756,-2.711614
2100.0,-2.63778,-2.659003,-2.685663,-2.727453,-2.699195,-2.683285,-2.702525,-2.747238
2150.0,-2.655968,-2.682954,-2.727064,-2.7816,-2.725313,-2.711237,-2.738672,-2.793594
2200.0,-2.691889,-2.733125,-2.774133,-2.825216,-2.752547,-2.747372,-2.774374,-2.833626
2250.0,-2.761395,-2.78081,-2.805033,-2.841602,-2.812942,-2.797936,-2.817958,-2.869386
2300.0,-2.795551,-2.801596,-2.847043,-2.883887,-2.859316,-2.836993,-2.866469,-2.912821
2350.0,-2.803928,-2.836474,-2.892455,-2.929144,-2.868804,-2.868559,-2.900363,-2.953958
2400.0,-2.855367,-2.890696,-2.935159,-2.960794,-2.904737,-2.913429,-2.930075,-2.992944
2450.0,-2.91704,-2.923962,-2.967456,-2.983377,-2.966789,-2.955374,-2.97889,-3.033485
2500.0,-2.938337,-2.950531,-3.012604,-3.030414,-3.009564,-2.988613,-3.034343,-3.074171
2550.0,-2.95385,-2.987017,-3.050282,-3.075336,-3.032123,-3.025595,-3.060769,-3.110913
2600.0,-3.006117,-3.028127,-3.082841,-3.109481,-3.062295,-3.059761,-3.082631,-3.145666
2650.0,-3.060874,-3.071265,-3.116796,-3.138903,-3.117035,-3.093403,-3.130667,-3.183789
2700.0,-3.086755,-3.104586,-3.172629,-3.194237,-3.162999,-3.131803,-3.180831,-3.229338
2750.0,-3.109169,-3.137821,-3.212284,-3.237749,-3.180682,-3.160751,-3.208012,-3.262166
2800.0,-3.160259,-3.185371,-3.234196,-3.263014,-3.217405,-3.191024,-3.231577,-3.292976
2850.0,-3.209374,-3.220803,-3.269138,-3.299164,-3.273821,-3.223135,-3.277372,-3.338767
2900.0,-3.230455,-3.254913,-3.334005,-3.356444,-3.310768,-3.265432,-3.325031,-3.372476
2950.0,-3.263603,-3.304933,-3.370053,-3.39045,-3.328488,-3.298325,-3.347843,-3.405632
3000.0,-3.317261,-3.349203,-3.374688,-3.417304,-3.368297,-3.323359,-3.384957,-3.475495
3050.0,-3.34955,-3.366204,-3.408109,-3.461087,-3.410103,-3.350745,-3.451124,-3.519341
3100.0,-3.369495,-3.402598,-3.473359,-3.49738,-3.441599,-3.394729,-3.485987,-3.520708
3150.0,-3.410735,-3.450101,-3.50749,-3.528357,-3.47177,-3.417512,-3.496291,-3.55294
3200.0,-3.455486,-3.480446,-3.518848,-3.568878,-3.498911,-3.446784,-3.543602,-3.625068
3250.0,-3.469514,-3.494977,-3.542562,-3.592478,-3.529309,-3.484088,-3.590407,-3.644464
3300.0,-3.48957,-3.53251,-3.590533,-3.621635,-3.567799,-3.512657,-3.603685,-3.638455
3350.0,-3.536234,-3.57593,-3.633124,-3.673623,-3.599986,-3.533889,-3.626445,-3.686856
3400.0,-3.576525,-3.606625,-3.65454,-3.708252,-3.631844,-3.572493,-3.688856,-3.756926
3450.0,-3.600129,-3.637915,-3.673212,-3.729095,-3.667197,-3.61719,-3.729886,-3.780131
3500.0,-3.627227,-3.672258,-3.719938,-3.767392,-3.705371,-3.645621,-3.738862,-3.77719
3550.0,-3.673671,-3.708732,-3.76459,-3.824046,-3.74253,-3.66585,-3.767381,-3.82605
3600.0,-3.722474,-3.749649,-3.791673,-3.864258,-3.776563,-3.702906,-3.833118,-3.902949
3650.0,-3.748703,-3.7804,-3.820862,-3.883582,-3.815278,-3.756296,-3.871377,-3.920837
3700.0,-3.767605,-3.81385,-3.856834,-3.908638,-3.850622,-3.786523,-3.869433,-3.912028
3750.0,-3.814472,-3.858505,-3.90414,-3.973739,-3.889822,-3.806194,-3.916997,-3.992846
3800.0,-3.867432,-3.902264,-3.955511,-4.017999,-3.932318,-3.865342,-4.019991,-4.061457
3850.0,-3.895108,-3.938015,-3.973114,-4.014811,-3.976615,-3.943597,-4.038444,-4.041942
3900.0,-3.921989,-3.967116,-3.986957,-4.052824,-4.025938,-3.963726,-4.009622,-4.059536
3950.0,-3.963628,-4.004717,-4.066499,-4.123415,-4.052984,-3.960862,-4.101235,-4.148596
4000.0,-4.023555,-4.087606,-4.134375,-4.152703,-4.103112,-4.064012,-4.21686,-4.188505
4050.0,-4.075624,-4.130719,-4.115872,-4.162084,-4.191752,-4.143926,-4.183078,-4.176366
4100.0,-4.104077,-4.115479,-4.140959,-4.197864,-4.22117,-4.108121,-4.16012,-4.192552
4150.0,-4.107452,-4.156342,-4.240292,-4.238354,-4.202609,-4.124013,-4.275374,-4.245263
4200.0,-4.173693,-4.243852,-4.271112,-4.264413,-4.280225,-4.240205,-4.339427,-4.288308
4250.0,-4.253719,-4.256206,-4.24011,-4.295441,-4.38029,-4.273929,-4.289362,-4.312322
4300.0,-4.243232,-4.244746,-4.272634,-4.328499,-4.360803,-4.22979,-4.291333,-4.328318
4350.0,-4.224767,-4.295277,-4.348874,-4.359417,-4.33365,-4.261377,-4.385407,-4.367928
4400.0,-4.301521,-4.362856,-4.379364,-4.399551,-4.42735,-4.363915,-4.437842,-4.414618
4450.0,-4.383028,-4.378407,-4.375236,-4.435459,-4.527464,-4.403815,-4.413173,-4.455702
4500.0,-4.364076,-4.375009,-4.395315,-4.458134,-4.520108,-4.37055,-4.411368,-4.475748
4550.0,-4.335746,-4.420685,-4.457103,-4.494656,-4.478946,-4.395703,-4.494146,-4.5077
4600.0,-4.411753,-4.50332,-4.512443,-4.535569,-4.558936,-4.508823,-4.553877,-4.554317
4650.0,-4.51969,-4.543182,-4.51309,-4.567614,-4.710959,-4.568182,-4.533784,-4.591462
4700.0,-4.525083,-4.527694,-4.523803,-4.594222,-4.729342,-4.523133,-4.540968,-4.624313
4750.0,-4.463095,-4.556606,-4.588252,-4.627453,-4.646718,-4.542899,-4.617078,-4.656118
4800.0,-4.538826,-4.6588,-4.628019,-4.661988,-4.750453,-4.675851,-4.651017,-4.693794
4850.0,-4.688535,-4.69436,-4.627872,-4.708573,-4.971841,-4.717728,-4.649293,-4.753725
4900.0,-4.67072,-4.655518,-4.660716,-4.757041,-4.940919,-4.653688,-4.673882,-4.8235
4950.0,-4.577421,-4.695197,-4.695047,-4.799717,-4.784394,-4.68868,-4.716974,-4.877834
5000.0,-4.672963,-4.782105,-4.718289,-4.824675,-4.915277,-4.792374,-4.7475,-4.877429
5050.0,-4.814546,-4.788227,-4.753712,-4.882037,-5.088436,-4.802889,-4.776131,-4.935896
5100.0,-4.77169,-4.770774,-4.785092,-4.991592,-4.995909,-4.764834,-4.809551,-5.069202
5150.0,-4.691582,-4.808003,-4.818614,-5.000725,-4.893156,-4.801464,-4.852501,-5.087962
5200.0,-4.750228,-4.849162,-4.842846,-4.972464,-4.992137,-4.865238,-4.880219,-5.021226
5250.0,-4.867135,-4.875643,-4.895345,-5.061038,-5.107583,-4.893817,-4.919964,-5.106217
5300.0,-4.879785,-4.902512,-4.955017,-5.142831,-5.100746,-4.910801,-4.98355,-5.255568
5350.0,-4.835345,-4.925963,-4.95966,-5.098156,-5.043029,-4.921328,-4.996779,-5.226573
5400.0,-4.850446,-4.95763,-4.966844,-5.082284,-5.067069,-4.961863,-4.999109,-5.144393
5450.0,-4.947267,-5.007518,-5.023791,-5.17129,-5.19754,-5.020074,-5.050996,-5.222266
5500.0,-5.031175,-5.045199,-5.067656,-5.239612,-5.291309,-5.052285,-5.106069,-5.385491
5550.0,-5.016267,-5.052377,-5.07582,-5.227741,-5.241034,-5.054887,-5.119849,-5.406812
5600.0,-4.992529,-5.078912,-5.092496,-5.20209,-5.205146,-5.076124,-5.134627,-5.312927
5650.0,-5.090231,-5.128783,-5.125475,-5.279983,-5.343088,-5.129177,-5.167345,-5.359492
5700.0,-5.191953,-5.161576,-5.194168,-5.4126,-5.451712,-5.16771,-5.23649,-5.563169
5750.0,-5.162877,-5.179177,-5.262485,-5.426283,-5.371892,-5.188665,-5.320068,-5.5996
5800.0,-5.142559,-5.209353,-5.274893,-5.359722,-5.336334,-5.223754,-5.334536,-5.461233
5850.0,-5.202927,-5.256248,-5.286407,-5.436953,-5.43961,-5.279426,-5.324788,-5.48105
5900.0,-5.276158,-5.292446,-5.409287,-5.576767,-5.509349,-5.313474,-5.447969,-5.693859
5950.0,-5.296422,-5.340355,-5.525954,-5.551975,-5.506811,-5.374805,-5.570287,-5.710844
6000.0,-5.271863,-5.379347,-5.470967,-5.490957,-5.482568,-5.442935,-5.5075,-5.570015
6050.0,-5.277066,-5.396844,-5.461967,-5.556344,-5.519469,-5.445839,-5.461094,-5.565205
6100.0,-5.353891,-5.437179,-5.613178,-5.636063,-5.624408,-5.468169,-5.606861,-5.700533
6150.0,-5.438544,-5.518464,-5.663658,-5.628032,-5.692727,-5.571009,-5.670198,-5.775043
6200.0,-5.445929,-5.545472,-5.583661,-5.593235,-5.687855,-5.607882,-5.58648,-5.718039
6250.0,-5.414593,-5.528512,-5.580755,-5.608727,-5.692117,-5.557713,-5.566353,-5.675932
6300.0,-5.474933,-5.571914,-5.650269,-5.691531,-5.777013,-5.586974,-5.646217,-5.779688
6350.0,-5.612327,-5.652028,-5.705672,-5.754682,-5.890694,-5.681795,-5.710444,-5.903674
6400.0,-5.646739,-5.678067,-5.709363,-5.755163,-5.894453,-5.714659,-5.705265,-5.9076
6450.0,-5.566634,-5.666338,-5.678208,-5.741451,-5.83014,-5.683143,-5.678402,-5.835226
6500.0,-5.584383,-5.684489,-5.709049,-5.824257,-5.889055,-5.681838,-5.722401,-5.856979
6550.0,-5.736873,-5.757629,-5.830466,-5.944979,-6.033377,-5.772845,-5.835041,-6.014364
6600.0,-5.801328,-5.835208,-5.886562,-5.955453,-6.063044,-5.885494,-5.893824,-6.114953
6650.0,-5.718088,-5.838533,-5.822849,-5.897126,-5.995261,-5.871465,-5.847023,-6.033853
6700.0,-5.69655,-5.82268,-5.853713,-5.951682,-6.038615,-5.827445,-5.857889,-5.987078
6750.0,-5.830647,-5.918958,-5.996475,-6.0755,-6.189582,-5.94475,-5.965611,-6.167613
6800.0,-5.950876,-6.041347,-6.052145,-6.100245,-6.265099,-6.111215,-6.023633,-6.342918
6850.0,-5.914375,-6.032067,-6.007663,-6.035462,-6.24167,-6.062324,-5.998743,-6.262936
6900.0,-5.843675,-5.976827,-5.972694,-6.063722,-6.229831,-5.957077,-5.977071,-6.18288
6950.0,-5.93864,-6.078815,-6.047219,-6.170155,-6.320953,-6.077207,-6.049104,-6.338171
7000.0,-6.133178,-6.240563,-6.164477,-6.239167,-6.475768,-6.249203,-6.169043,-6.502288
7050.0,-6.144687,-6.244519,-6.139706,-6.242483,-6.488266,-6.222482,-6.171168,-6.47899
7100.0,-5.987884,-6.137792,-6.045308,-6.203491,-6.351353,-6.110925,-6.10686,-6.341083
7150.0,-6.037039,-6.190583,-6.119645,-6.252112,-6.406765,-6.168758,-6.172273,-6.369719
7200.0,-6.265135,-6.394134,-6.259259,-6.414526,-6.611154,-6.37373,-6.306791,-6.613728
7250.0,-6.303905,-6.433469,-6.267645,-6.430374,-6.637164,-6.424845,-6.341516,-6.672556
7300.0,-6.13887,-6.296669,-6.17942,-6.306015,-6.484696,-6.282094,-6.260826,-6.464129
7350.0,-6.109513,-6.325916,-6.195819,-6.337783,-6.482379,-6.284673,-6.265972,-6.449869
7400.0,-6.315481,-6.536303,-6.345872,-6.519371,-6.692947,-6.528862,-6.411866,-6.7359
7450.0,-6.460021,-6.613789,-6.39771,-6.57082,-6.80677,-6.625414,-6.485426,-6.852501
7500.0,-6.338367,-6.462331,-6.310736,-6.445711,-6.690681,-6.446787,-6.402241,-6.628345
7550.0,-6.218447,-6.415882,-6.297174,-6.428392,-6.601582,-6.395564,-6.366112,-6.555843
7600.0,-6.422801,-6.65144,-6.430091,-6.613964,-6.781807,-6.649678,-6.494913,-6.835082
7650.0,-6.690057,-6.802929,-6.529608,-6.739386,-6.991774,-6.794685,-6.624874,-7.002877
7700.0,-6.607139,-6.659568,-6.463531,-6.640901,-6.920909,-6.643079,-6.598877,-6.821683
7750.0,-6.37486,-6.547873,-6.408063,-6.54483,-6.73008,-6.51406,-6.523179,-6.656826
7800.0,-6.512282,-6.780613,-6.517209,-6.701893,-6.851183,-6.726233,-6.603427,-6.859664
7850.0,-6.853467,-7.015018,-6.640242,-6.896455,-7.145288,-6.99442,-6.779418,-7.128852
7900.0,-6.837923,-6.887334,-6.631114,-6.848395,-7.162005,-6.91744,-6.800608,-7.066767
7950.0,-6.564428,-6.718302,-6.55477,-6.712305,-6.93598,-6.706049,-6.685295,-6.849624
8000.0,-6.62209,-6.946964,-6.599906,-6.858956,-6.952228,-6.917973,-6.692325,-6.972885
8050.0,-6.998217,-7.168242,-6.742119,-7.132823,-7.309695,-7.240204,-6.874267,-7.34944
8100.0,-7.125618,-7.045631,-6.814085,-7.142684,-7.482568,-7.161248,-6.957015,-7.424915
8150.0,-6.80168,-6.868354,-6.739557,-6.903862,-7.198837,-6.88978,-6.838346,-7.095083
8200.0,-6.689538,-6.99535,-6.718143,-6.994322,-7.070957,-6.999929,-6.787833,-7.122519
8250.0,-7.125165,-7.212343,-6.874529,-7.356911,-7.468996,-7.308871,-6.970265,-7.560254
8300.0,-7.347997,-7.194953,-7.048889,-7.367353,-7.69573,-7.29625,-7.158725,-7.601826
8350.0,-7.015626,-6.977263,-6.992342,-7.07514,-7.384903,-7.014683,-7.073969,-7.23569
8400.0,-6.7698,-7.00189,-6.852578,-7.103047,-7.158913,-7.011096,-6.93254,-7.18354
8450.0,-7.136936,-7.242422,-6.983479,-7.407452,-7.471402,-7.322381,-7.096157,-7.501519
8500.0,-7.474198,-7.328797,-7.210633,-7.495236,-7.787032,-7.442961,-7.345757,-7.66906
8550.0,-7.257359,-7.135352,-7.159484,-7.244955,-7.604124,-7.20424,-7.277628,-7.422983
8600.0,-6.904064,-7.087302,-6.988408,-7.177654,-7.263373,-7.116183,-7.085779,-7.244838
8650.0,-7.157471,-7.323314,-7.040988,-7.491259,-7.470497,-7.440144,-7.146471,-7.588858
8700.0,-7.669127,-7.462893,-7.269591,-7.702405,-7.981198,-7.621301,-7.427387,-7.944294
8750.0,-7.607624,-7.274702,-7.372525,-7.478576,-7.989587,-7.378351,-7.509051,-7.742391
8800.0,-7.134968,-7.192336,-7.247691,-7.3572,-7.514072,-7.233451,-7.335088,-7.474396
8850.0,-7.265739,-7.346659,-7.183675,-7.725893,-7.610068,-7.467366,-7.256436,-7.836229
8900.0,-7.890277,-7.446596,-7.503204,-7.937845,-8.28954,-7.599412,-7.629353,-8.184312
8950.0,-7.874271,-7.371938,-7.83609,-7.649265,-8.330282,-7.478721,-7.943175,-7.91757
9000.0,-7.310552,-7.295059,-7.627917,-7.489625,-7.727034,-7.349891,-7.68715,-7.587825
9050.0,-7.358762,-7.370045,-7.394922,-7.787493,-7.737321,-7.431884,-7.466953,-7.778895
9100.0,-7.92266,-7.518286,-7.85808,-7.904983,-8.338665,-7.621541,-7.96855,-8.001226
9150.0,-7.942535,-7.60862,-8.185843,-7.668235,-8.388746,-7.716523,-8.270358,-7.885818
9200.0,-7.430556,-7.526236,-7.761249,-7.497505,-7.862141,-7.613072,-7.848705,-7.6408
9250.0,-7.348963,-7.522437,-7.540478,-7.712596,-7.712945,-7.565035,-7.600928,-7.701363
9300.0,-7.783049,-7.727994,-7.917461,-7.844999,-8.147725,-7.827841,-7.975492,-7.952796
9350.0,-7.955688,-7.948313,-8.118823,-7.801458,-8.390264,-8.102624,-8.213385,-8.064009
9400.0,-7.662749,-7.77951,-7.7869,-7.642257,-8.103263,-7.913881,-7.948544,-7.88605
9450.0,-7.416069,-7.692007,-7.577679,-7.768906,-7.789888,-7.742095,-7.675127,-7.823416
9500.0,-7.755436,-7.893649,-7.781179,-7.971359,-8.16261,-7.999514,-7.856222,-8.095109
9550.0,-8.157408,-8.105683,-8.096453,-8.061705,-8.699068,-8.225197,-8.270558,-8.29585
9600.0,-7.996353,-7.922326,-8.027656,-7.824214,-8.521344,-8.017161,-8.261636,-8.104888
9650.0,-7.596033,-7.791543,-7.72315,-7.859045,-7.997152,-7.821125,-7.880295,-7.958831
9700.0,-7.859429,-7.950339,-7.871616,-8.074929,-8.283165,-7.980321,-8.005334,-8.138182
9750.0,-8.334853,-8.175566,-8.343749,-8.117285,-8.870151,-8.24348,-8.561739,-8.31018
9800.0,-8.149124,-8.162525,-8.304358,-7.948087,-8.678453,-8.250442,-8.545056,-8.266927
9850.0,-7.770337,-7.963208,-7.883122,-7.918918,-8.167419,-8.047887,-8.05331,-8.099072
9900.0,-7.894447,-8.111938,-8.022875,-8.125264,-8.281426,-8.0666,-8.137979,-8.208724
9950.0,-8.225127,-8.491201,-8.368776,-8.241528,-8.71374,-8.478424,-8.538601,-8.47649
10000.0,-8.265929,-8.644266,-8.273764,-8.289336,-8.748349,-8.713591,-8.499334,-8.669854
10050.0,-7.991247,-8.232711,-7.936163,-8.120301,-8.402167,-8.384465,-8.169601,-8.414993
10100.0,-7.887192,-8.3459,-7.954148,-8.317926,-8.256618,-8.305005,-8.110984,-8.424616
10150.0,-8.181129,-8.759034,-8.157715,-8.58899,-8.659571,-8.796244,-8.370142,-8.802102
10200.0,-8.474067,-8.844363,-8.267889,-8.712622,-9.009292,-8.983624,-8.576922,-9.033736
10250.0,-8.322864,-8.309907,-8.137942,-8.312373,-8.778951,-8.526961,-8.465293,-8.653401
10300.0,-7.978846,-8.427645,-8.010363,-8.51643,-8.407465,-8.373924,-8.255705,-8.529258
10350.0,-8.244249,-8.739893,-8.184798,-8.807421,-8.802228,-8.768237,-8.482384,-8.862484
10400.0,-8.700933,-8.803524,-8.529877,-8.837676,-9.301857,-8.956715,-8.918533,-9.070625
10450.0,-8.553106,-8.413374,-8.519091,-8.424184,-9.074002,-8.642625,-8.856942,-8.7657
10500.0,-8.096985,-8.398377,-8.188816,-8.493601,-8.563341,-8.403048,-8.412604,-8.554478
10550.0,-8.248211,-8.662491,-8.338439,-8.739209,-8.795238,-8.667891,-8.626861,-8.834209
10600.0,-8.68621,-8.87493,-8.723993,-8.886698,-9.254715,-9.027703,-9.06125,-9.148849
10650.0,-8.657656,-8.641889,-8.684787,-8.642154,-9.177419,-8.924365,-8.981518,-9.036655
10700.0,-8.259733,-8.440731,-8.306012,-8.507271,-8.738964,-8.553169,-8.545454,-8.648306
10750.0,-8.205204,-8.749472,-8.348894,-8.84815,-8.743117,-8.767784,-8.572207,-8.887166
10800.0,-8.616774,-9.015109,-8.662589,-9.112128,-9.174868,-9.234712,-8.932688,-9.304778
10850.0,-8.858929,-8.806786,-8.777898,-8.875657,-9.374172,-9.124115,-9.088783,-9.204022
10900.0,-8.594172,-8.533034,-8.560274,-8.587,-9.082934,-8.699929,-8.869085,-8.745779
10950.0,-8.331312,-8.780165,-8.430567,-8.978226,-8.865497,-8.835569,-8.697076,-8.90548
11000.0,-8.691779,-8.931716,-8.700097,-9.157752,-9.281229,-9.194144,-9.082861,-9.225157
11050.0,-9.127274,-8.844216,-9.042863,-8.922422,-9.68868,-9.174739,-9.505139,-9.166512
11100.0,-8.906032,-8.662892,-8.952233,-8.656024,-9.419946,-8.907389,-9.321028,-8.833484
11150.0,-8.458143,-8.70713,-8.588151,-8.836385,-8.995928,-8.821125,-8.857597,-8.818283
11200.0,-8.787117,-8.857878,-8.84416,-8.964647,-9.306407,-9.080679,-9.251306,-9.091102
11250.0,-9.221843,-8.986874,-9.286554,-8.924771,-9.700967,-9.332589,-9.736768,-9.232764
11300.0,-9.01654,-8.880635,-9.145302,-8.741977,-9.475635,-9.212981,-9.467362,-9.049799
11350.0,-8.570431,-8.756633,-8.684388,-8.740129,-9.068254,-8.92221,-8.933954,-8.891014
